2014-4-7        20:49

Voltage(V)           Current(A)           Current_density(mA/cm^2)           ABS(Current_density)

-5.000660E-1        -5.980940E-4        -9.968233E+0        9.968233E+0
-4.906800E-1        -5.969510E-4        -9.949183E+0        9.949183E+0
-4.812930E-1        -5.954960E-4        -9.924933E+0        9.924933E+0
-4.719070E-1        -5.949310E-4        -9.915517E+0        9.915517E+0
-4.625570E-1        -5.936480E-4        -9.894133E+0        9.894133E+0
-4.531750E-1        -5.925330E-4        -9.875550E+0        9.875550E+0
-4.437900E-1        -5.915630E-4        -9.859383E+0        9.859383E+0
-4.344020E-1        -5.902210E-4        -9.837017E+0        9.837017E+0
-4.250160E-1        -5.889470E-4        -9.815783E+0        9.815783E+0
-4.156730E-1        -5.878720E-4        -9.797867E+0        9.797867E+0
-4.062860E-1        -5.861690E-4        -9.769483E+0        9.769483E+0
-3.968990E-1        -5.848490E-4        -9.747483E+0        9.747483E+0
-3.875110E-1        -5.833470E-4        -9.722450E+0        9.722450E+0
-3.781630E-1        -5.818190E-4        -9.696983E+0        9.696983E+0
-3.687780E-1        -5.806900E-4        -9.678167E+0        9.678167E+0
-3.593900E-1        -5.793570E-4        -9.655950E+0        9.655950E+0
-3.500040E-1        -5.782710E-4        -9.637850E+0        9.637850E+0
-3.406590E-1        -5.769120E-4        -9.615200E+0        9.615200E+0
-3.312720E-1        -5.759570E-4        -9.599283E+0        9.599283E+0
-3.218850E-1        -5.746440E-4        -9.577400E+0        9.577400E+0
-3.124980E-1        -5.734000E-4        -9.556667E+0        9.556667E+0
-3.031170E-1        -5.718760E-4        -9.531267E+0        9.531267E+0
-2.937640E-1        -5.701030E-4        -9.501717E+0        9.501717E+0
-2.843760E-1        -5.684530E-4        -9.474217E+0        9.474217E+0
-2.749920E-1        -5.672110E-4        -9.453517E+0        9.453517E+0
-2.656020E-1        -5.658790E-4        -9.431317E+0        9.431317E+0
-2.562520E-1        -5.645740E-4        -9.409567E+0        9.409567E+0
-2.468660E-1        -5.631600E-4        -9.386000E+0        9.386000E+0
-2.374840E-1        -5.612900E-4        -9.354833E+0        9.354833E+0
-2.281000E-1        -5.597310E-4        -9.328850E+0        9.328850E+0
-2.187120E-1        -5.582810E-4        -9.304683E+0        9.304683E+0
-2.093600E-1        -5.563870E-4        -9.273117E+0        9.273117E+0
-1.999770E-1        -5.549260E-4        -9.248767E+0        9.248767E+0
-1.906010E-1        -5.534370E-4        -9.223950E+0        9.223950E+0
-1.812270E-1        -5.522790E-4        -9.204650E+0        9.204650E+0
-1.718520E-1        -5.506230E-4        -9.177050E+0        9.177050E+0
-1.624840E-1        -5.490330E-4        -9.150550E+0        9.150550E+0
-1.531120E-1        -5.472850E-4        -9.121417E+0        9.121417E+0
-1.437370E-1        -5.455890E-4        -9.093150E+0        9.093150E+0
-1.343610E-1        -5.436620E-4        -9.061033E+0        9.061033E+0
-1.249890E-1        -5.417200E-4        -9.028667E+0        9.028667E+0
-1.156130E-1        -5.396070E-4        -8.993450E+0        8.993450E+0
-1.062370E-1        -5.379430E-4        -8.965717E+0        8.965717E+0
-9.686170E-2        -5.360950E-4        -8.934917E+0        8.934917E+0
-8.748600E-2        -5.344650E-4        -8.907750E+0        8.907750E+0
-7.811120E-2        -5.328120E-4        -8.880200E+0        8.880200E+0
-6.873440E-2        -5.305180E-4        -8.841967E+0        8.841967E+0
-5.935840E-2        -5.285790E-4        -8.809650E+0        8.809650E+0
-4.998090E-2        -5.261790E-4        -8.769650E+0        8.769650E+0
-4.060350E-2        -5.241180E-4        -8.735300E+0        8.735300E+0
-3.122640E-2        -5.218550E-4        -8.697583E+0        8.697583E+0
-2.184580E-2        -5.192170E-4        -8.653617E+0        8.653617E+0
-1.246580E-2        -5.168720E-4        -8.614533E+0        8.614533E+0
-3.087210E-3        -5.145300E-4        -8.575500E+0        8.575500E+0
6.162410E-3        -5.118180E-4        -8.530300E+0        8.530300E+0
1.554170E-2        -5.089640E-4        -8.482733E+0        8.482733E+0
2.491880E-2        -5.060640E-4        -8.434400E+0        8.434400E+0
3.429480E-2        -5.031820E-4        -8.386367E+0        8.386367E+0
4.367280E-2        -5.000110E-4        -8.333517E+0        8.333517E+0
5.305180E-2        -4.967220E-4        -8.278700E+0        8.278700E+0
6.242500E-2        -4.936040E-4        -8.226733E+0        8.226733E+0
7.180170E-2        -4.899100E-4        -8.165167E+0        8.165167E+0
8.118040E-2        -4.860250E-4        -8.100417E+0        8.100417E+0
9.055480E-2        -4.824750E-4        -8.041250E+0        8.041250E+0
9.992740E-2        -4.784080E-4        -7.973467E+0        7.973467E+0
1.093080E-1        -4.742070E-4        -7.903450E+0        7.903450E+0
1.186830E-1        -4.698570E-4        -7.830950E+0        7.830950E+0
1.280540E-1        -4.655470E-4        -7.759117E+0        7.759117E+0
1.374310E-1        -4.607340E-4        -7.678900E+0        7.678900E+0
1.468030E-1        -4.559030E-4        -7.598383E+0        7.598383E+0
1.561740E-1        -4.510180E-4        -7.516967E+0        7.516967E+0
1.655440E-1        -4.454390E-4        -7.423983E+0        7.423983E+0
1.749200E-1        -4.396190E-4        -7.326983E+0        7.326983E+0
1.842910E-1        -4.339680E-4        -7.232800E+0        7.232800E+0
1.936620E-1        -4.277750E-4        -7.129583E+0        7.129583E+0
2.030520E-1        -4.212510E-4        -7.020850E+0        7.020850E+0
2.124030E-1        -4.150380E-4        -6.917300E+0        6.917300E+0
2.217900E-1        -4.082120E-4        -6.803533E+0        6.803533E+0
2.311780E-1        -4.014040E-4        -6.690067E+0        6.690067E+0
2.405610E-1        -3.940640E-4        -6.567733E+0        6.567733E+0
2.499110E-1        -3.864670E-4        -6.441117E+0        6.441117E+0
2.593000E-1        -3.786770E-4        -6.311283E+0        6.311283E+0
2.686880E-1        -3.705510E-4        -6.175850E+0        6.175850E+0
2.780690E-1        -3.620930E-4        -6.034883E+0        6.034883E+0
2.874220E-1        -3.534190E-4        -5.890317E+0        5.890317E+0
2.968100E-1        -3.444860E-4        -5.741433E+0        5.741433E+0
3.061990E-1        -3.353830E-4        -5.589717E+0        5.589717E+0
3.155780E-1        -3.257180E-4        -5.428633E+0        5.428633E+0
3.249310E-1        -3.155930E-4        -5.259883E+0        5.259883E+0
3.343180E-1        -3.050800E-4        -5.084667E+0        5.084667E+0
3.437070E-1        -2.944310E-4        -4.907183E+0        4.907183E+0
3.530910E-1        -2.833040E-4        -4.721733E+0        4.721733E+0
3.624480E-1        -2.717970E-4        -4.529950E+0        4.529950E+0
3.718350E-1        -2.600110E-4        -4.333517E+0        4.333517E+0
3.812230E-1        -2.478350E-4        -4.130583E+0        4.130583E+0
3.906060E-1        -2.354090E-4        -3.923483E+0        3.923483E+0
3.999570E-1        -2.226340E-4        -3.710567E+0        3.710567E+0
4.093450E-1        -2.095140E-4        -3.491900E+0        3.491900E+0
4.187330E-1        -1.959540E-4        -3.265900E+0        3.265900E+0
4.281150E-1        -1.821730E-4        -3.036217E+0        3.036217E+0
4.374650E-1        -1.681160E-4        -2.801933E+0        2.801933E+0
4.468500E-1        -1.537240E-4        -2.562067E+0        2.562067E+0
4.562400E-1        -1.389980E-4        -2.316633E+0        2.316633E+0
4.655870E-1        -1.241290E-4        -2.068817E+0        2.068817E+0
4.749740E-1        -1.089360E-4        -1.815600E+0        1.815600E+0
4.843620E-1        -9.356020E-5        -1.559337E+0        1.559337E+0
4.937490E-1        -7.793660E-5        -1.298943E+0        1.298943E+0
5.030980E-1        -6.107180E-5        -1.017863E+0        1.017863E+0
5.124830E-1        -4.497790E-5        -7.496317E-1        7.496317E-1
5.218700E-1        -2.869200E-5        -4.782000E-1        4.782000E-1
5.312540E-1        -1.218630E-5        -2.031050E-1        2.031050E-1
5.405920E-1        4.429700E-6        7.382833E-2        7.382833E-2
5.499840E-1        2.133750E-5        3.556250E-1        3.556250E-1
5.593700E-1        3.842660E-5        6.404433E-1        6.404433E-1
5.687500E-1        5.570840E-5        9.284733E-1        9.284733E-1
5.781030E-1        7.312640E-5        1.218773E+0        1.218773E+0
5.874890E-1        9.074350E-5        1.512392E+0        1.512392E+0
5.968730E-1        1.085780E-4        1.809633E+0        1.809633E+0
6.062550E-1        1.266300E-4        2.110500E+0        2.110500E+0
6.156080E-1        1.440940E-4        2.401567E+0        2.401567E+0
6.249940E-1        1.625730E-4        2.709550E+0        2.709550E+0
6.343820E-1        1.813550E-4        3.022583E+0        3.022583E+0
6.437660E-1        2.001970E-4        3.336617E+0        3.336617E+0
6.531190E-1        2.193160E-4        3.655267E+0        3.655267E+0
6.625040E-1        2.387570E-4        3.979283E+0        3.979283E+0
6.718910E-1        2.582340E-4        4.303900E+0        4.303900E+0
6.812790E-1        2.781310E-4        4.635517E+0        4.635517E+0
6.906250E-1        2.983960E-4        4.973267E+0        4.973267E+0
7.000140E-1        3.189220E-4        5.315367E+0        5.315367E+0
7.094010E-1        3.395320E-4        5.658867E+0        5.658867E+0
7.187850E-1        3.603530E-4        6.005883E+0        6.005883E+0
7.281330E-1        3.816590E-4        6.360983E+0        6.360983E+0
7.375180E-1        4.028860E-4        6.714767E+0        6.714767E+0
7.469060E-1        4.249730E-4        7.082883E+0        7.082883E+0
7.562880E-1        4.458730E-4        7.431217E+0        7.431217E+0
7.656400E-1        4.677470E-4        7.795783E+0        7.795783E+0
7.750250E-1        4.906610E-4        8.177683E+0        8.177683E+0
7.844100E-1        5.138280E-4        8.563800E+0        8.563800E+0
7.937930E-1        5.370750E-4        8.951250E+0        8.951250E+0
8.031440E-1        5.617060E-4        9.361767E+0        9.361767E+0
8.125300E-1        5.853580E-4        9.755967E+0        9.755967E+0
8.219140E-1        6.079150E-4        1.013192E+1        1.013192E+1
8.312950E-1        6.316450E-4        1.052742E+1        1.052742E+1
8.406460E-1        6.580530E-4        1.096755E+1        1.096755E+1
8.500290E-1        6.841970E-4        1.140328E+1        1.140328E+1
8.594190E-1        7.104350E-4        1.184058E+1        1.184058E+1
8.687990E-1        7.322230E-4        1.220372E+1        1.220372E+1
8.781460E-1        7.603180E-4        1.267197E+1        1.267197E+1
8.875310E-1        8.877990E-4        1.479665E+1        1.479665E+1
8.969180E-1        9.185500E-4        1.530917E+1        1.530917E+1
9.062640E-1        9.501330E-4        1.583555E+1        1.583555E+1
9.156500E-1        9.760840E-4        1.626807E+1        1.626807E+1
9.250360E-1        1.008910E-3        1.681517E+1        1.681517E+1
9.344200E-1        1.039510E-3        1.732517E+1        1.732517E+1
9.437680E-1        1.068850E-3        1.781417E+1        1.781417E+1
9.531550E-1        1.101740E-3        1.836233E+1        1.836233E+1
9.625470E-1        1.129840E-3        1.883067E+1        1.883067E+1
9.719260E-1        1.158730E-3        1.931217E+1        1.931217E+1
9.812740E-1        1.196580E-3        1.994300E+1        1.994300E+1
9.906590E-1        1.228380E-3        2.047300E+1        2.047300E+1
1.000050E+0        1.245550E-3        2.075917E+1        2.075917E+1



Voc (V)                5.405920E-1

Jsc (ma/cm^2)        -8.575500E+0

Fill Factor        3.695457E-1

Power convertion efficiency        -1.713157E-2

Lamp Power        1.000000E+2



